time[s] , x_t[m] , y_t[m] ,theta[deg]
0.00 , 0.000 , 0.000 , 0.000 
0.07 , 0.001 , 0.000 , 0.108 
0.12 , -0.004 , -0.000 , 0.650 
0.16 , -0.006 , -0.000 , 1.409 
0.20 , -0.004 , -0.000 , 0.976 
0.24 , -0.004 , -0.000 , 0.759 
0.30 , -0.004 , -0.000 , 0.759 
0.34 , -0.004 , -0.000 , 0.759 
0.40 , -0.004 , -0.000 , 0.759 
0.45 , -0.004 , -0.000 , 0.759 
0.50 , -0.004 , -0.000 , 0.759 
0.56 , -0.004 , -0.000 , 0.759 
0.61 , -0.004 , -0.000 , 0.759 
0.67 , -0.004 , -0.000 , 0.759 
0.73 , -0.004 , -0.000 , 0.759 
0.80 , -0.004 , -0.000 , 0.759 
0.86 , -0.004 , -0.000 , 0.759 
0.92 , -0.004 , -0.000 , 0.759 
0.96 , -0.004 , -0.000 , 0.759 
1.01 , -0.004 , -0.000 , 0.759 
1.06 , -0.004 , -0.000 , 0.759 
1.12 , -0.004 , -0.000 , 0.759 
1.17 , 0.003 , 0.000 , 1.517 
1.23 , 0.016 , 0.000 , 1.734 
1.30 , 0.030 , 0.001 , 1.951 
1.35 , 0.041 , 0.001 , 2.059 
1.39 , 0.051 , 0.002 , 2.168 
1.45 , 0.066 , 0.002 , 2.276 
1.51 , 0.082 , 0.003 , 3.360 
1.58 , 0.094 , 0.004 , 2.493 
1.63 , 0.109 , 0.004 , 2.493 
1.70 , 0.123 , 0.005 , 2.601 
1.75 , 0.134 , 0.006 , 2.710 
1.79 , 0.145 , 0.006 , 2.710 
1.85 , 0.156 , 0.007 , 2.818 
1.89 , 0.167 , 0.007 , 2.818 
1.95 , 0.182 , 0.008 , 2.818 
2.01 , 0.197 , 0.009 , 2.927 
2.08 , 0.211 , 0.009 , 2.927 
2.13 , 0.225 , 0.010 , 2.927 
2.20 , 0.242 , 0.011 , 3.794 
2.27 , 0.254 , 0.012 , 3.035 
2.31 , 0.266 , 0.013 , 3.035 
2.37 , 0.276 , 0.013 , 3.035 
2.40 , 0.287 , 0.014 , 3.143 
2.46 , 0.302 , 0.015 , 3.143 
2.52 , 0.313 , 0.015 , 3.252 
2.57 , 0.324 , 0.016 , 3.252 
2.61 , 0.334 , 0.016 , 3.252 
2.66 , 0.345 , 0.017 , 3.252 
2.72 , 0.360 , 0.018 , 3.360 
2.78 , 0.375 , 0.019 , 3.360 
2.85 , 0.389 , 0.020 , 3.252 
2.91 , 0.403 , 0.020 , 3.360 
2.95 , 0.414 , 0.021 , 3.360 
3.00 , 0.425 , 0.022 , 3.468 
3.05 , 0.436 , 0.022 , 3.468 
3.09 , 0.447 , 0.023 , 3.468 
3.15 , 0.462 , 0.024 , 3.468 
3.21 , 0.476 , 0.025 , 3.577 
3.27 , 0.490 , 0.026 , 3.577 
3.33 , 0.501 , 0.026 , 3.577 
3.37 , 0.512 , 0.027 , 3.685 
3.42 , 0.523 , 0.028 , 3.685 
3.48 , 0.538 , 0.029 , 3.685 
3.54 , 0.554 , 0.030 , 4.661 
3.63 , 0.574 , 0.031 , 3.794 
3.69 , 0.585 , 0.032 , 3.902 
3.72 , 0.592 , 0.033 , 3.794 
3.76 , 0.603 , 0.033 , 3.902 
3.81 , 0.614 , 0.034 , 3.794 
3.87 , 0.625 , 0.035 , 3.794 
3.90 , 0.636 , 0.035 , 3.902 
3.96 , 0.650 , 0.036 , 3.794 
4.01 , 0.661 , 0.037 , 3.902 
4.08 , 0.675 , 0.038 , 3.902 
4.13 , 0.686 , 0.039 , 4.010 
4.17 , 0.697 , 0.040 , 3.902 
4.23 , 0.704 , 0.040 , 3.360 
4.29 , 0.704 , 0.040 , 3.143 
4.35 , 0.704 , 0.040 , 3.143 
4.39 , 0.704 , 0.040 , 3.143 
4.44 , 0.704 , 0.040 , 3.143 
4.50 , 0.704 , 0.040 , 3.143 
4.55 , 0.703 , 0.040 , 0.867 
4.59 , 0.703 , 0.040 , -3.035 
4.65 , 0.703 , 0.040 , -9.322 
4.70 , 0.703 , 0.040 , -14.308 
4.76 , 0.704 , 0.040 , -21.136 
4.83 , 0.705 , 0.039 , -28.073 
4.88 , 0.704 , 0.040 , -35.877 
4.96 , 0.706 , 0.038 , -43.681 
5.01 , 0.706 , 0.038 , -48.884 
5.07 , 0.709 , 0.035 , -50.835 
5.11 , 0.710 , 0.034 , -51.160 
5.17 , 0.710 , 0.034 , -51.160 
5.23 , 0.710 , 0.034 , -51.160 
5.28 , 0.710 , 0.034 , -51.160 
5.33 , 0.710 , 0.034 , -51.160 
5.38 , 0.714 , 0.028 , -50.618 
5.45 , 0.722 , 0.019 , -50.401 
5.52 , 0.731 , 0.008 , -50.510 
5.58 , 0.741 , -0.005 , -50.185 
5.67 , 0.753 , -0.020 , -51.377 
5.71 , 0.760 , -0.028 , -51.594 
5.76 , 0.767 , -0.037 , -51.811 
5.82 , 0.774 , -0.046 , -52.027 
5.87 , 0.780 , -0.054 , -52.136 
5.91 , 0.787 , -0.063 , -52.244 
5.96 , 0.796 , -0.074 , -52.569 
6.02 , 0.802 , -0.083 , -52.786 
6.08 , 0.811 , -0.094 , -53.003 
6.13 , 0.820 , -0.106 , -53.220 
6.20 , 0.828 , -0.118 , -53.436 
6.26 , 0.838 , -0.131 , -52.786 
6.35 , 0.848 , -0.144 , -53.870 
6.40 , 0.856 , -0.155 , -54.087 
6.46 , 0.863 , -0.165 , -54.303 
6.49 , 0.869 , -0.173 , -54.412 
6.55 , 0.875 , -0.182 , -54.629 
6.60 , 0.882 , -0.191 , -54.737 
6.65 , 0.890 , -0.203 , -55.062 
6.71 , 0.898 , -0.215 , -55.171 
6.77 , 0.907 , -0.227 , -55.279 
6.83 , 0.913 , -0.236 , -55.496 
6.88 , 0.921 , -0.248 , -55.604 
6.95 , 0.930 , -0.261 , -54.954 
7.01 , 0.938 , -0.272 , -56.038 
7.07 , 0.944 , -0.281 , -56.255 
7.10 , 0.950 , -0.290 , -56.363 
7.16 , 0.958 , -0.302 , -56.580 
7.23 , 0.966 , -0.315 , -56.796 
7.28 , 0.972 , -0.324 , -56.796 
7.33 , 0.978 , -0.333 , -57.122 
7.38 , 0.986 , -0.345 , -57.230 
7.45 , 0.993 , -0.358 , -57.447 
7.51 , 1.001 , -0.370 , -57.664 
7.57 , 1.009 , -0.382 , -57.880 
7.64 , 1.018 , -0.396 , -57.122 
7.70 , 1.024 , -0.406 , -58.314 
7.74 , 1.028 , -0.412 , -58.314 
7.78 , 1.034 , -0.422 , -58.531 
7.83 , 1.040 , -0.431 , -58.639 
7.87 , 1.045 , -0.440 , -58.639 
7.93 , 1.053 , -0.453 , -58.856 
8.00 , 1.060 , -0.465 , -59.073 
8.05 , 1.066 , -0.475 , -59.181 
8.09 , 1.071 , -0.484 , -59.289 
8.14 , 1.077 , -0.493 , -59.506 
8.20 , 1.084 , -0.506 , -59.615 
8.26 , 1.091 , -0.519 , -59.831 
8.33 , 1.100 , -0.533 , -59.181 
8.39 , 1.106 , -0.544 , -60.157 
8.44 , 1.111 , -0.553 , -60.373 
8.48 , 1.117 , -0.563 , -60.590 
8.53 , 1.122 , -0.572 , -60.699 
8.58 , 1.128 , -0.582 , -60.807 
8.63 , 1.133 , -0.591 , -60.915 
8.68 , 1.136 , -0.597 , -61.891 
8.74 , 1.136 , -0.598 , -61.999 
8.80 , 1.136 , -0.598 , -61.891 
8.84 , 1.136 , -0.598 , -61.891 
8.89 , 1.136 , -0.598 , -61.891 
8.94 , 1.136 , -0.598 , -61.891 
9.00 , 1.136 , -0.598 , -61.891 
9.05 , 1.136 , -0.598 , -61.891 
9.11 , 1.136 , -0.598 , -61.891 
9.16 , 1.136 , -0.598 , -61.891 
9.23 , 1.136 , -0.598 , -61.891 
9.28 , 1.136 , -0.598 , -61.891 
9.32 , 1.136 , -0.598 , -61.891 
9.38 , 1.136 , -0.598 , -61.891 
9.44 , 1.136 , -0.598 , -61.891 
9.49 , 1.136 , -0.598 , -61.891 
9.56 , 1.136 , -0.598 , -61.891 
9.62 , 1.136 , -0.598 , -61.891 
9.68 , 1.136 , -0.598 , -61.891 
9.75 , 1.136 , -0.598 , -61.891 
9.80 , 1.136 , -0.598 , -61.891 
9.84 , 1.136 , -0.598 , -61.891 
9.89 , 1.136 , -0.598 , -61.891 
9.94 , 1.136 , -0.598 , -61.891 
9.98 , 1.136 , -0.598 , -61.891 
10.03 , 1.136 , -0.598 , -61.891 
10.07 , 1.136 , -0.598 , -61.891 
10.13 , 1.136 , -0.598 , -61.891 
10.20 , 1.136 , -0.598 , -61.891 
10.26 , 1.136 , -0.598 , -61.891 
10.33 , 1.136 , -0.598 , -61.891 
10.39 , 1.136 , -0.598 , -61.891 
10.45 , 1.136 , -0.598 , -61.891 
10.49 , 1.136 , -0.598 , -61.891 
10.53 , 1.136 , -0.598 , -61.891 
10.58 , 1.136 , -0.598 , -61.891 
10.62 , 1.136 , -0.598 , -61.891 
10.67 , 1.136 , -0.598 , -61.891 
